  1.9136140e-003  1.9136140e-003  1.9136140e-003  1.9136140e-003  1.9136140e-003  1.9136140e-003  1.9136140e-003  1.9136140e-003  2.1869874e-003  2.4603609e-003  2.7337343e-003  3.0071077e-003  3.2804811e-003  3.5538546e-003  3.8272280e-003  4.1006014e-003  4.3739748e-003  4.6473483e-003  4.9207217e-003  5.1940951e-003  5.4674686e-003  5.7408420e-003  6.0142154e-003  6.2875888e-003  6.5609623e-003  7.4281635e-003  8.8891926e-003  1.0944050e-002  1.3592734e-002  1.6835247e-002  2.0671587e-002  2.5101756e-002  3.0125752e-002  3.5743576e-002  4.1955228e-002  4.8760707e-002  5.6160015e-002  6.4153150e-002  7.2740113e-002  8.1920904e-002  9.1101695e-002  1.0028249e-001  1.0946328e-001  1.1864407e-001  1.2782486e-001  1.3700565e-001  1.4618644e-001  1.5536723e-001  1.6454802e-001  1.7372881e-001  1.8290960e-001  1.9209040e-001  2.0127119e-001  2.1045198e-001  2.1963277e-001  2.2881356e-001  2.3799435e-001  2.4717514e-001  2.5635593e-001  2.6553672e-001  2.7471751e-001  2.8267420e-001  2.8940678e-001  2.9491525e-001  2.9919962e-001  3.0225989e-001  3.0409605e-001  3.0470810e-001  3.0409605e-001  3.0225989e-001  2.9919962e-001  2.9491525e-001  2.8940678e-001  2.8267420e-001  2.7471751e-001  2.6553672e-001  2.5635593e-001  2.4717514e-001  2.3799435e-001  2.2881356e-001  2.1963277e-001  2.1045198e-001  2.0127119e-001  1.9209040e-001  1.8290960e-001  1.7372881e-001  1.6454802e-001  1.5536723e-001  1.4618644e-001  1.3700565e-001  1.2782486e-001  1.1864407e-001  1.0946328e-001  1.0028249e-001  9.1101695e-002  8.1920904e-002  7.2740113e-002  6.4159093e-002  5.6177843e-002  4.8796365e-002  4.2014657e-002  3.5832719e-002  3.0250553e-002  2.5268157e-002  2.0885532e-002  1.7102677e-002  1.3919594e-002  1.1336281e-002  9.3527389e-003  7.9689675e-003  7.1849668e-003  7.0007369e-003  6.8165070e-003  6.6322771e-003  6.4480472e-003  6.2638172e-003  6.0795873e-003  5.8953574e-003  5.7111275e-003  5.5268976e-003  5.3426676e-003  5.1584377e-003  4.9742078e-003  4.7899779e-003  4.6057480e-003  4.4215181e-003  4.2372881e-003  4.0530582e-003  3.8688283e-003  3.6845984e-003  3.5003685e-003  3.3161385e-003  3.1319086e-003  2.9476787e-003  2.7634488e-003  2.5792189e-003  2.3949889e-003  2.2107590e-003  2.0265291e-003  1.8422992e-003  1.6580693e-003  1.4738394e-003  1.2896094e-003 -6.2861481e-004 -4.2808334e-003 -9.6670463e-003 -1.6787254e-002 -2.5641455e-002 -3.6229651e-002 -4.8551841e-002 -6.2608026e-002 -7.8398205e-002 -9.5922378e-002 -1.1518055e-001 -1.3099140e-001 -1.4335495e-001 -1.5227119e-001 -1.5774011e-001 -1.5802773e-001 -1.5313405e-001 -1.4305907e-001 -1.2780277e-001 -1.0736518e-001 -8.1746276e-002 -5.0946071e-002 -1.4964561e-002  2.6198254e-002  7.2542373e-002  1.2406780e-001  1.7559322e-001  2.2711864e-001  2.7864407e-001  3.3016949e-001  3.8169492e-001  4.3322034e-001  4.8474576e-001  5.3627119e-001  5.8779661e-001  6.3932203e-001  6.8250847e-001  7.1735593e-001  7.4386441e-001  7.6203390e-001  7.7186441e-001  7.7335593e-001  7.6650847e-001  7.5132203e-001  7.2779661e-001  6.9593220e-001  6.5572881e-001  6.0718644e-001  5.5030508e-001  4.8508475e-001  4.1152542e-001  3.3796610e-001  2.6440678e-001  1.9084746e-001  1.1728814e-001  4.3728814e-002 -2.9830508e-002 -1.0338983e-001 -1.7694915e-001 -2.5050847e-001 -3.2406780e-001 -3.8806215e-001 -4.4249153e-001 -4.8735593e-001 -5.2265537e-001 -5.4838983e-001 -5.6455932e-001 -5.7116384e-001 -5.6820339e-001 -5.5567797e-001 -5.3358757e-001 -5.0193220e-001 -4.6071186e-001 -4.1457515e-001 -3.6352207e-001 -3.0755262e-001 -2.5623176e-001 -2.0955951e-001 -1.6753585e-001 -1.3016080e-001 -9.7434345e-002 -6.9356491e-002 -4.5927237e-002 -2.7146582e-002 -1.3014528e-002 -3.5310734e-003  1.3037810e-003  1.4900354e-003  1.6762898e-003  1.8625442e-003  2.0487987e-003  2.2350531e-003  2.4213075e-003  2.6075619e-003  2.7938164e-003  2.9800708e-003  3.1663252e-003  3.3525796e-003  3.5388340e-003  3.7250885e-003  3.9113429e-003  4.0975973e-003  4.2838517e-003  4.4701062e-003  4.6563606e-003  4.8426150e-003  5.0288694e-003  5.2151239e-003  5.4013783e-003  5.5876327e-003  5.7738871e-003  5.9601416e-003  6.1463960e-003  6.3326504e-003  6.5189048e-003  6.7051592e-003  6.8914137e-003  7.0776681e-003  7.2639225e-003  7.4501769e-003  7.6364314e-003  7.8226858e-003  8.0089402e-003  8.1951946e-003  8.3814491e-003  8.5677035e-003  8.7539579e-003  8.9402123e-003  9.1264668e-003  9.3127212e-003  9.4989756e-003  9.6852300e-003  9.8714844e-003  1.0057739e-002  1.0243993e-002  1.0430248e-002  1.0616502e-002  1.0802757e-002  1.0989011e-002  1.1175265e-002  1.1361520e-002  1.1547774e-002  1.1734029e-002  1.1920283e-002  1.2106538e-002  1.2292792e-002  1.2479046e-002  1.2665301e-002  1.2851555e-002  1.3037810e-002  1.3224064e-002  1.3410318e-002  1.3596573e-002  1.3782827e-002  1.3969082e-002  1.4155336e-002  1.4341591e-002  1.4527845e-002  1.4714099e-002  1.4900354e-002  1.5086608e-002  1.5272863e-002  1.5459117e-002  1.5645372e-002  1.6117389e-002  1.6875168e-002  1.7918710e-002  1.9248015e-002  2.0863082e-002  2.2763912e-002  2.4950505e-002  2.7422860e-002  3.0180977e-002  3.3224857e-002  3.6554500e-002  4.0169905e-002  4.4071073e-002  4.8258004e-002  5.2730697e-002  5.7203390e-002  6.1676083e-002  6.6148776e-002  7.0621469e-002  7.5094162e-002  7.9566855e-002  8.4039548e-002  8.8512241e-002  9.2984934e-002  9.7457627e-002  1.0193032e-001  1.0640301e-001  1.1087571e-001  1.1534840e-001  1.1982109e-001  1.2429379e-001  1.2876648e-001  1.3323917e-001  1.3771186e-001  1.4218456e-001  1.4665725e-001  1.5053358e-001  1.5381356e-001  1.5649718e-001  1.5858443e-001  1.6007533e-001  1.6096987e-001  1.6126805e-001  1.6096987e-001  1.6007533e-001  1.5858443e-001  1.5649718e-001  1.5381356e-001  1.5053358e-001  1.4665725e-001  1.4218456e-001  1.3771186e-001  1.3323917e-001  1.2876648e-001  1.2429379e-001  1.1982109e-001  1.1534840e-001  1.1087571e-001  1.0640301e-001  1.0193032e-001  9.7457627e-002  9.2984934e-002  8.8512241e-002  8.4039548e-002  7.9566855e-002  7.5094162e-002  7.0621469e-002  6.6148776e-002  6.1676083e-002  5.7203390e-002  5.2730697e-002  4.8258004e-002  4.4029683e-002  4.0045736e-002  3.6306161e-002  3.2810959e-002  2.9560129e-002  2.6553672e-002  2.3791588e-002  2.1273877e-002  1.9000538e-002  1.6971572e-002  1.5186979e-002  1.3646758e-002  1.2350910e-002  1.1299435e-002  1.0492333e-002  9.6852300e-003  8.8781275e-003  8.0710250e-003  7.2639225e-003  6.4568200e-003  5.6497175e-003  4.8964218e-003  4.1969330e-003  3.5512510e-003  2.9593758e-003  2.4213075e-003  1.9370460e-003  1.5065913e-003  1.1299435e-003  8.0710250e-004  5.3806833e-004  3.2284100e-004  1.6142050e-004  5.3806833e-005  0.0000000e+000  0.0000000e+000  0.0000000e+000  0.0000000e+000  0.0000000e+000  0.0000000e+000  0.0000000e+000  0.0000000e+000  0.0000000e+000  0.0000000e+000  0.0000000e+000  0.0000000e+000  0.0000000e+000  0.0000000e+000  0.0000000e+000  0.0000000e+000  0.0000000e+000  0.0000000e+000  0.0000000e+000  0.0000000e+000  0.0000000e+000  0.0000000e+000  0.0000000e+000  0.0000000e+000  0.0000000e+000  0.0000000e+000  0.0000000e+000  0.0000000e+000  0.0000000e+000  0.0000000e+000  0.0000000e+000  0.0000000e+000  0.0000000e+000  0.0000000e+000  0.0000000e+000  0.0000000e+000  0.0000000e+000  0.0000000e+000  0.0000000e+000  0.0000000e+000  0.0000000e+000  0.0000000e+000  0.0000000e+000  0.0000000e+000  0.0000000e+000  0.0000000e+000  0.0000000e+000  0.0000000e+000  0.0000000e+000  0.0000000e+000  0.0000000e+000  0.0000000e+000  0.0000000e+000  0.0000000e+000  0.0000000e+000  0.0000000e+000  0.0000000e+000  0.0000000e+000  0.0000000e+000  0.0000000e+000  0.0000000e+000  0.0000000e+000  0.0000000e+000  0.0000000e+000  0.0000000e+000  0.0000000e+000  0.0000000e+000  0.0000000e+000  0.0000000e+000  0.0000000e+000  0.0000000e+000  0.0000000e+000  0.0000000e+000  0.0000000e+000  0.0000000e+000  0.0000000e+000  0.0000000e+000  0.0000000e+000  0.0000000e+000  0.0000000e+000  0.0000000e+000  0.0000000e+000  0.0000000e+000  0.0000000e+000  0.0000000e+000  0.0000000e+000  0.0000000e+000  1.9136140e-003  1.9136140e-003  1.9136140e-003  1.9136140e-003  1.9136140e-003  1.9136140e-003  1.9136140e-003  1.9136140e-003  2.1869874e-003  2.4603609e-003  2.7337343e-003  3.0071077e-003  3.2804811e-003  3.5538546e-003  3.8272280e-003  4.1006014e-003  4.3739748e-003  4.6473483e-003  4.9207217e-003  5.1940951e-003  5.4674686e-003  5.7408420e-003  6.0142154e-003  6.2875888e-003  6.5609623e-003  7.4281635e-003  8.8891926e-003  1.0944050e-002  1.3592734e-002  1.6835247e-002  2.0671587e-002  2.5101756e-002  3.0125752e-002  3.5743576e-002  4.1955228e-002  4.8760707e-002  5.6160015e-002  6.4153150e-002  7.2740113e-002  8.1920904e-002  9.1101695e-002  1.0028249e-001  1.0946328e-001  1.1864407e-001  1.2782486e-001  1.3700565e-001  1.4618644e-001  1.5536723e-001  1.6454802e-001  1.7372881e-001  1.8290960e-001  1.9209040e-001  2.0127119e-001  2.1045198e-001  2.1963277e-001  2.2881356e-001  2.3799435e-001  2.4717514e-001  2.5635593e-001  2.6553672e-001  2.7471751e-001  2.8267420e-001  2.8940678e-001  2.9491525e-001  2.9919962e-001  3.0225989e-001  3.0409605e-001  3.0470810e-001  3.0409605e-001  3.0225989e-001  2.9919962e-001  2.9491525e-001  2.8940678e-001  2.8267420e-001  2.7471751e-001  2.6553672e-001  2.5635593e-001  2.4717514e-001  2.3799435e-001  2.2881356e-001  2.1963277e-001  2.1045198e-001  2.0127119e-001  1.9209040e-001  1.8290960e-001  1.7372881e-001  1.6454802e-001  1.5536723e-001  1.4618644e-001  1.3700565e-001  1.2782486e-001  1.1864407e-001  1.0946328e-001  1.0028249e-001  9.1101695e-002  8.1920904e-002  7.2740113e-002  6.4159093e-002  5.6177843e-002  4.8796365e-002  4.2014657e-002  3.5832719e-002  3.0250553e-002  2.5268157e-002  2.0885532e-002  1.7102677e-002  1.3919594e-002  1.1336281e-002  9.3527389e-003  7.9689675e-003  7.1849668e-003  7.0007369e-003  6.8165070e-003  6.6322771e-003  6.4480472e-003  6.2638172e-003  6.0795873e-003  5.8953574e-003  5.7111275e-003  5.5268976e-003  5.3426676e-003  5.1584377e-003  4.9742078e-003  4.7899779e-003  4.6057480e-003  4.4215181e-003  4.2372881e-003  4.0530582e-003  3.8688283e-003  3.6845984e-003  3.5003685e-003  3.3161385e-003  3.1319086e-003  2.9476787e-003  2.7634488e-003  2.5792189e-003  2.3949889e-003  2.2107590e-003  2.0265291e-003  1.8422992e-003  1.6580693e-003  1.4738394e-003  1.2896094e-003 -6.2861481e-004 -4.2808334e-003 -9.6670463e-003 -1.6787254e-002 -2.5641455e-002 -3.6229651e-002 -4.8551841e-002 -6.2608026e-002 -7.8398205e-002 -9.5922378e-002 -1.1518055e-001 -1.3099140e-001 -1.4335495e-001 -1.5227119e-001 -1.5774011e-001 -1.5802773e-001 -1.5313405e-001 -1.4305907e-001 -1.2780277e-001 -1.0736518e-001 -8.1746276e-002 -5.0946071e-002 -1.4964561e-002  2.6198254e-002  7.2542373e-002  1.2406780e-001  1.7559322e-001  2.2711864e-001  2.7864407e-001  3.3016949e-001  3.8169492e-001  4.3322034e-001  4.8474576e-001  5.3627119e-001  5.8779661e-001  6.3932203e-001  6.8250847e-001  7.1735593e-001  7.4386441e-001  7.6203390e-001  7.7186441e-001  7.7335593e-001  7.6650847e-001  7.5132203e-001  7.2779661e-001  6.9593220e-001  6.5572881e-001  6.0718644e-001  5.5030508e-001  4.8508475e-001  4.1152542e-001  3.3796610e-001  2.6440678e-001  1.9084746e-001  1.1728814e-001  4.3728814e-002 -2.9830508e-002 -1.0338983e-001 -1.7694915e-001 -2.5050847e-001 -3.2406780e-001 -3.8806215e-001 -4.4249153e-001 -4.8735593e-001 -5.2265537e-001 -5.4838983e-001 -5.6455932e-001 -5.7116384e-001 -5.6820339e-001 -5.5567797e-001 -5.3358757e-001 -5.0193220e-001 -4.6071186e-001 -4.1457515e-001 -3.6352207e-001 -3.0755262e-001 -2.5623176e-001 -2.0955951e-001 -1.6753585e-001 -1.3016080e-001 -9.7434345e-002 -6.9356491e-002 -4.5927237e-002 -2.7146582e-002 -1.3014528e-002 -3.5310734e-003  1.3037810e-003  1.4900354e-003  1.6762898e-003  1.8625442e-003  2.0487987e-003  2.2350531e-003  2.4213075e-003  2.6075619e-003  2.7938164e-003  2.9800708e-003  3.1663252e-003  3.3525796e-003  3.5388340e-003  3.7250885e-003  3.9113429e-003  4.0975973e-003  4.2838517e-003  4.4701062e-003  4.6563606e-003  4.8426150e-003  5.0288694e-003  5.2151239e-003  5.4013783e-003  5.5876327e-003  5.7738871e-003  5.9601416e-003  6.1463960e-003  6.3326504e-003  6.5189048e-003  6.7051592e-003  6.8914137e-003  7.0776681e-003  7.2639225e-003  7.4501769e-003  7.6364314e-003  7.8226858e-003  8.0089402e-003  8.1951946e-003  8.3814491e-003  8.5677035e-003  8.7539579e-003  8.9402123e-003  9.1264668e-003  9.3127212e-003  9.4989756e-003  9.6852300e-003  9.8714844e-003  1.0057739e-002  1.0243993e-002  1.0430248e-002  1.0616502e-002  1.0802757e-002  1.0989011e-002  1.1175265e-002  1.1361520e-002  1.1547774e-002  1.1734029e-002  1.1920283e-002  1.2106538e-002  1.2292792e-002  1.2479046e-002  1.2665301e-002  1.2851555e-002  1.3037810e-002  1.3224064e-002  1.3410318e-002  1.3596573e-002  1.3782827e-002  1.3969082e-002  1.4155336e-002  1.4341591e-002  1.4527845e-002  1.4714099e-002  1.4900354e-002  1.5086608e-002  1.5272863e-002  1.5459117e-002  1.5645372e-002  1.6117389e-002  1.6875168e-002  1.7918710e-002  1.9248015e-002  2.0863082e-002  2.2763912e-002  2.4950505e-002  2.7422860e-002  3.0180977e-002  3.3224857e-002  3.6554500e-002  4.0169905e-002  4.4071073e-002  4.8258004e-002  5.2730697e-002  5.7203390e-002  6.1676083e-002  6.6148776e-002  7.0621469e-002  7.5094162e-002  7.9566855e-002  8.4039548e-002  8.8512241e-002  9.2984934e-002  9.7457627e-002  1.0193032e-001  1.0640301e-001  1.1087571e-001  1.1534840e-001  1.1982109e-001  1.2429379e-001  1.2876648e-001  1.3323917e-001  1.3771186e-001  1.4218456e-001  1.4665725e-001  1.5053358e-001  1.5381356e-001  1.5649718e-001  1.5858443e-001  1.6007533e-001  1.6096987e-001  1.6126805e-001  1.6096987e-001  1.6007533e-001  1.5858443e-001  1.5649718e-001  1.5381356e-001  1.5053358e-001  1.4665725e-001  1.4218456e-001  1.3771186e-001  1.3323917e-001  1.2876648e-001  1.2429379e-001  1.1982109e-001  1.1534840e-001  1.1087571e-001  1.0640301e-001  1.0193032e-001  9.7457627e-002  9.2984934e-002  8.8512241e-002  8.4039548e-002  7.9566855e-002  7.5094162e-002  7.0621469e-002  6.6148776e-002  6.1676083e-002  5.7203390e-002  5.2730697e-002  4.8258004e-002  4.4029683e-002  4.0045736e-002  3.6306161e-002  3.2810959e-002  2.9560129e-002  2.6553672e-002  2.3791588e-002  2.1273877e-002  1.9000538e-002  1.6971572e-002  1.5186979e-002  1.3646758e-002  1.2350910e-002  1.1299435e-002  1.0492333e-002  9.6852300e-003  8.8781275e-003  8.0710250e-003  7.2639225e-003  6.4568200e-003  5.6497175e-003  4.8964218e-003  4.1969330e-003  3.5512510e-003  2.9593758e-003  2.4213075e-003  1.9370460e-003  1.5065913e-003  1.1299435e-003  8.0710250e-004  5.3806833e-004  3.2284100e-004  1.6142050e-004  5.3806833e-005  0.0000000e+000  0.0000000e+000  0.0000000e+000  0.0000000e+000  0.0000000e+000  0.0000000e+000  0.0000000e+000  0.0000000e+000  0.0000000e+000  0.0000000e+000  0.0000000e+000  0.0000000e+000  0.0000000e+000  0.0000000e+000  0.0000000e+000  0.0000000e+000  0.0000000e+000  0.0000000e+000  0.0000000e+000  0.0000000e+000  0.0000000e+000  0.0000000e+000  0.0000000e+000  0.0000000e+000  0.0000000e+000  0.0000000e+000  0.0000000e+000  0.0000000e+000  0.0000000e+000  0.0000000e+000  0.0000000e+000  0.0000000e+000  0.0000000e+000  0.0000000e+000  0.0000000e+000  0.0000000e+000  0.0000000e+000  0.0000000e+000  0.0000000e+000  0.0000000e+000  0.0000000e+000  0.0000000e+000  0.0000000e+000  0.0000000e+000  0.0000000e+000  0.0000000e+000  0.0000000e+000  0.0000000e+000  0.0000000e+000  0.0000000e+000  0.0000000e+000  0.0000000e+000  0.0000000e+000  0.0000000e+000  0.0000000e+000  0.0000000e+000  0.0000000e+000  0.0000000e+000  0.0000000e+000  0.0000000e+000  0.0000000e+000  0.0000000e+000  0.0000000e+000  0.0000000e+000  0.0000000e+000  0.0000000e+000  0.0000000e+000  0.0000000e+000  0.0000000e+000  0.0000000e+000  0.0000000e+000  0.0000000e+000  0.0000000e+000  0.0000000e+000  0.0000000e+000  0.0000000e+000  0.0000000e+000  0.0000000e+000  0.0000000e+000  0.0000000e+000  0.0000000e+000  0.0000000e+000  0.0000000e+000  0.0000000e+000  0.0000000e+000  0.0000000e+000  0.0000000e+000  1.9136140e-003  1.9136140e-003  1.9136140e-003  1.9136140e-003  1.9136140e-003  1.9136140e-003  1.9136140e-003  1.9136140e-003  2.1869874e-003  2.4603609e-003  2.7337343e-003  3.0071077e-003  3.2804811e-003  3.5538546e-003  3.8272280e-003  4.1006014e-003  4.3739748e-003  4.6473483e-003  4.9207217e-003  5.1940951e-003  5.4674686e-003  5.7408420e-003  6.0142154e-003  6.2875888e-003  6.5609623e-003  7.4281635e-003  8.8891926e-003  1.0944050e-002  1.3592734e-002  1.6835247e-002  2.0671587e-002  2.5101756e-002  3.0125752e-002  3.5743576e-002  4.1955228e-002  4.8760707e-002  5.6160015e-002  6.4153150e-002  7.2740113e-002  8.1920904e-002  9.1101695e-002  1.0028249e-001  1.0946328e-001  1.1864407e-001  1.2782486e-001  1.3700565e-001  1.4618644e-001  1.5536723e-001  1.6454802e-001  1.7372881e-001  1.8290960e-001  1.9209040e-001  2.0127119e-001  2.1045198e-001  2.1963277e-001  2.2881356e-001  2.3799435e-001  2.4717514e-001  2.5635593e-001  2.6553672e-001  2.7471751e-001  2.8267420e-001  2.8940678e-001  2.9491525e-001  2.9919962e-001  3.0225989e-001  3.0409605e-001  3.0470810e-001  3.0409605e-001  3.0225989e-001  2.9919962e-001  2.9491525e-001  2.8940678e-001  2.8267420e-001  2.7471751e-001  2.6553672e-001  2.5635593e-001  2.4717514e-001  2.3799435e-001  2.2881356e-001  2.1963277e-001  2.1045198e-001  2.0127119e-001  1.9209040e-001  1.8290960e-001  1.7372881e-001  1.6454802e-001  1.5536723e-001  1.4618644e-001  1.3700565e-001  1.2782486e-001  1.1864407e-001  1.0946328e-001  1.0028249e-001  9.1101695e-002  8.1920904e-002  7.2740113e-002  6.4159093e-002  5.6177843e-002  4.8796365e-002  4.2014657e-002  3.5832719e-002  3.0250553e-002  2.5268157e-002  2.0885532e-002  1.7102677e-002  1.3919594e-002  1.1336281e-002  9.3527389e-003  7.9689675e-003  7.1849668e-003  7.0007369e-003  6.8165070e-003  6.6322771e-003  6.4480472e-003  6.2638172e-003  6.0795873e-003  5.8953574e-003  5.7111275e-003  5.5268976e-003  5.3426676e-003  5.1584377e-003  4.9742078e-003  4.7899779e-003  4.6057480e-003  4.4215181e-003  4.2372881e-003  4.0530582e-003  3.8688283e-003  3.6845984e-003  3.5003685e-003  3.3161385e-003  3.1319086e-003  2.9476787e-003  2.7634488e-003  2.5792189e-003  2.3949889e-003  2.2107590e-003  2.0265291e-003  1.8422992e-003  1.6580693e-003  1.4738394e-003  1.2896094e-003 -6.2861481e-004 -4.2808334e-003 -9.6670463e-003 -1.6787254e-002 -2.5641455e-002 -3.6229651e-002 -4.8551841e-002 -6.2608026e-002 -7.8398205e-002 -9.5922378e-002 -1.1518055e-001 -1.3099140e-001 -1.4335495e-001 -1.5227119e-001 -1.5774011e-001 -1.5802773e-001 -1.5313405e-001 -1.4305907e-001 -1.2780277e-001 -1.0736518e-001 -8.1746276e-002 -5.0946071e-002 -1.4964561e-002  2.6198254e-002  7.2542373e-002  1.2406780e-001  1.7559322e-001  2.2711864e-001  2.7864407e-001  3.3016949e-001  3.8169492e-001  4.3322034e-001  4.8474576e-001  5.3627119e-001  5.8779661e-001  6.3932203e-001  6.8250847e-001  7.1735593e-001  7.4386441e-001  7.6203390e-001  7.7186441e-001  7.7335593e-001  7.6650847e-001  7.5132203e-001  7.2779661e-001  6.9593220e-001  6.5572881e-001  6.0718644e-001  5.5030508e-001  4.8508475e-001  4.1152542e-001  3.3796610e-001  2.6440678e-001  1.9084746e-001  1.1728814e-001  4.3728814e-002 -2.9830508e-002 -1.0338983e-001 -1.7694915e-001 -2.5050847e-001 -3.2406780e-001 -3.8806215e-001 -4.4249153e-001 -4.8735593e-001 -5.2265537e-001 -5.4838983e-001 -5.6455932e-001 -5.7116384e-001 -5.6820339e-001 -5.5567797e-001 -5.3358757e-001 -5.0193220e-001 -4.6071186e-001 -4.1457515e-001 -3.6352207e-001 -3.0755262e-001 -2.5623176e-001 -2.0955951e-001 -1.6753585e-001 -1.3016080e-001 -9.7434345e-002 -6.9356491e-002 -4.5927237e-002 -2.7146582e-002 -1.3014528e-002 -3.5310734e-003  1.3037810e-003  1.4900354e-003  1.6762898e-003  1.8625442e-003  2.0487987e-003  2.2350531e-003  2.4213075e-003  2.6075619e-003  2.7938164e-003  2.9800708e-003  3.1663252e-003  3.3525796e-003  3.5388340e-003  3.7250885e-003  3.9113429e-003  4.0975973e-003  4.2838517e-003  4.4701062e-003  4.6563606e-003  4.8426150e-003  5.0288694e-003  5.2151239e-003  5.4013783e-003  5.5876327e-003  5.7738871e-003  5.9601416e-003  6.1463960e-003  6.3326504e-003  6.5189048e-003  6.7051592e-003  6.8914137e-003  7.0776681e-003  7.2639225e-003  7.4501769e-003  7.6364314e-003  7.8226858e-003  8.0089402e-003  8.1951946e-003  8.3814491e-003  8.5677035e-003  8.7539579e-003  8.9402123e-003  9.1264668e-003  9.3127212e-003  9.4989756e-003  9.6852300e-003  9.8714844e-003  1.0057739e-002  1.0243993e-002  1.0430248e-002  1.0616502e-002  1.0802757e-002  1.0989011e-002  1.1175265e-002  1.1361520e-002  1.1547774e-002  1.1734029e-002  1.1920283e-002  1.2106538e-002  1.2292792e-002  1.2479046e-002  1.2665301e-002  1.2851555e-002  1.3037810e-002  1.3224064e-002  1.3410318e-002  1.3596573e-002  1.3782827e-002  1.3969082e-002  1.4155336e-002  1.4341591e-002  1.4527845e-002  1.4714099e-002  1.4900354e-002  1.5086608e-002  1.5272863e-002  1.5459117e-002  1.5645372e-002  1.6117389e-002  1.6875168e-002  1.7918710e-002  1.9248015e-002  2.0863082e-002  2.2763912e-002  2.4950505e-002  2.7422860e-002  3.0180977e-002  3.3224857e-002  3.6554500e-002  4.0169905e-002  4.4071073e-002  4.8258004e-002  5.2730697e-002  5.7203390e-002  6.1676083e-002  6.6148776e-002  7.0621469e-002  7.5094162e-002  7.9566855e-002  8.4039548e-002  8.8512241e-002  9.2984934e-002  9.7457627e-002  1.0193032e-001  1.0640301e-001  1.1087571e-001  1.1534840e-001  1.1982109e-001  1.2429379e-001  1.2876648e-001  1.3323917e-001  1.3771186e-001  1.4218456e-001  1.4665725e-001  1.5053358e-001  1.5381356e-001  1.5649718e-001  1.5858443e-001  1.6007533e-001  1.6096987e-001  1.6126805e-001  1.6096987e-001  1.6007533e-001  1.5858443e-001  1.5649718e-001  1.5381356e-001  1.5053358e-001  1.4665725e-001  1.4218456e-001  1.3771186e-001  1.3323917e-001  1.2876648e-001  1.2429379e-001  1.1982109e-001  1.1534840e-001  1.1087571e-001  1.0640301e-001  1.0193032e-001  9.7457627e-002  9.2984934e-002  8.8512241e-002  8.4039548e-002  7.9566855e-002  7.5094162e-002  7.0621469e-002  6.6148776e-002  6.1676083e-002  5.7203390e-002  5.2730697e-002  4.8258004e-002  4.4029683e-002  4.0045736e-002  3.6306161e-002  3.2810959e-002  2.9560129e-002  2.6553672e-002  2.3791588e-002  2.1273877e-002  1.9000538e-002  1.6971572e-002  1.5186979e-002  1.3646758e-002  1.2350910e-002  1.1299435e-002  1.0492333e-002  9.6852300e-003  8.8781275e-003  8.0710250e-003  7.2639225e-003  6.4568200e-003  5.6497175e-003  4.8964218e-003  4.1969330e-003  3.5512510e-003  2.9593758e-003  2.4213075e-003  1.9370460e-003  1.5065913e-003  1.1299435e-003  8.0710250e-004  5.3806833e-004  3.2284100e-004  1.6142050e-004  5.3806833e-005  0.0000000e+000  0.0000000e+000  0.0000000e+000  0.0000000e+000  0.0000000e+000  0.0000000e+000  0.0000000e+000  0.0000000e+000  0.0000000e+000  0.0000000e+000  0.0000000e+000  0.0000000e+000  0.0000000e+000  0.0000000e+000  0.0000000e+000  0.0000000e+000  0.0000000e+000  0.0000000e+000  0.0000000e+000  0.0000000e+000  0.0000000e+000  0.0000000e+000  0.0000000e+000  0.0000000e+000  0.0000000e+000  0.0000000e+000  0.0000000e+000  0.0000000e+000  0.0000000e+000  0.0000000e+000  0.0000000e+000  0.0000000e+000  0.0000000e+000  0.0000000e+000  0.0000000e+000  0.0000000e+000  0.0000000e+000  0.0000000e+000  0.0000000e+000  0.0000000e+000  0.0000000e+000  0.0000000e+000  0.0000000e+000  0.0000000e+000  0.0000000e+000  0.0000000e+000  0.0000000e+000  0.0000000e+000  0.0000000e+000  0.0000000e+000  0.0000000e+000  0.0000000e+000  0.0000000e+000  0.0000000e+000  0.0000000e+000  0.0000000e+000  0.0000000e+000  0.0000000e+000  0.0000000e+000  0.0000000e+000  0.0000000e+000  0.0000000e+000  0.0000000e+000  0.0000000e+000  0.0000000e+000  0.0000000e+000  0.0000000e+000  0.0000000e+000  0.0000000e+000  0.0000000e+000  0.0000000e+000  0.0000000e+000  0.0000000e+000  0.0000000e+000  0.0000000e+000  0.0000000e+000  0.0000000e+000  0.0000000e+000  0.0000000e+000  0.0000000e+000  0.0000000e+000  0.0000000e+000  0.0000000e+000  0.0000000e+000  0.0000000e+000  0.0000000e+000  0.0000000e+000
